Data from sun_spectra_USB4F104151__1__15-57-29-266.txt Node

Date: Thu Mar 07 15:57:29 EST 2024
User: lauri
Spectrometer: USB4F10415
Trigger mode: 4
Integration Time (sec): 1,000000E-1
Scans to average: 1
Electric dark correction enabled: true
Nonlinearity correction enabled: false
Boxcar width: 0
XAxis mode: Wavelengths
Number of Pixels in Spectrum: 3648
>>>>>Begin Spectral Data<<<<<
178,204	-242,85
178,424	-242,85
178,644	-242,85
178,864	-263,33
179,084	-214,18
179,304	-23,72
179,524	-134,31
179,744	15,19
179,964	179,03
180,184	39,76
180,404	4,95
180,624	-27,82
180,844	-5,29
181,064	-42,15
181,283	99,16
181,503	-83,11
181,723	-21,67
181,943	-11,43
182,163	129,88
182,383	-1,19
182,602	56,15
182,822	103,25
183,042	-27,82
183,262	35,67
183,482	-31,91
183,701	56,15
183,921	-3,24
184,141	-25,77
184,361	86,87
184,58	64,34
184,8	37,72
185,02	47,96
185,239	62,29
185,459	56,15
185,679	84,82
185,898	31,57
186,118	31,57
186,338	43,86
186,557	58,2
186,777	15,19
186,997	39,76
187,216	-15,53
187,436	138,07
187,655	82,77
187,875	121,68
188,095	-1,19
188,314	45,91
188,534	84,82
188,753	15,19
188,973	54,1
189,192	131,92
189,412	31,57
189,631	-11,43
189,851	45,91
190,07	109,4
190,29	-17,58
190,509	-21,67
190,729	62,29
190,948	113,49
191,168	211,79
191,387	86,87
191,607	11,09
191,826	76,63
192,045	0,85
192,265	-3,24
192,484	95,06
192,704	72,53
192,923	-33,96
193,142	224,08
193,362	15,19
193,581	152,4
193,8	37,72
194,02	82,77
194,239	35,67
194,458	39,76
194,678	58,2
194,897	31,57
195,116	47,96
195,335	15,19
195,555	103,25
195,774	68,44
195,993	76,63
196,212	31,57
196,432	13,14
196,651	-44,2
196,87	-5,29
197,089	162,64
197,308	54,1
197,528	60,24
197,747	-19,63
197,966	31,57
198,185	133,97
198,404	15,19
198,623	7
198,842	84,82
199,062	33,62
199,281	66,39
199,5	39,76
199,719	21,33
199,938	60,24
200,157	31,57
200,376	95,06
200,595	13,14
200,814	39,76
201,033	-25,77
201,252	111,44
201,471	-13,48
201,69	39,76
201,909	70,48
202,128	95,06
202,347	80,72
202,566	39,76
202,785	19,29
203,004	-19,63
203,223	152,4
203,442	27,48
203,661	-29,87
203,879	109,4
204,098	115,54
204,317	29,52
204,536	105,3
204,755	29,52
204,974	136,02
205,193	70,48
205,411	146,26
205,63	45,91
205,849	80,72
206,068	70,48
206,287	-38,06
206,505	76,63
206,724	56,15
206,943	76,63
207,162	43,86
207,381	99,16
207,599	35,67
207,818	9,05
208,037	-11,43
208,255	-25,77
208,474	50
208,693	43,86
208,911	-42,15
209,13	56,15
209,349	47,96
209,567	47,96
209,786	56,15
210,005	113,49
210,223	19,29
210,442	-66,73
210,661	99,16
210,879	13,14
211,098	19,29
211,316	9,05
211,535	72,53
211,753	39,76
211,972	31,57
212,191	45,91
212,409	56,15
212,628	72,53
212,846	-5,29
213,065	105,3
213,283	138,07
213,502	7
213,72	19,29
213,938	72,53
214,157	-5,29
214,375	84,82
214,594	-17,58
214,812	97,11
215,031	-3,24
215,249	-17,58
215,467	15,19
215,686	47,96
215,904	82,77
216,122	-50,35
216,341	11,09
216,559	-38,06
216,778	54,1
216,996	150,36
217,214	-62,63
217,432	31,57
217,651	2,9
217,869	80,72
218,087	-13,48
218,306	-91,31
218,524	7
218,742	-21,67
218,96	101,2
219,179	146,26
219,397	64,34
219,615	174,93
219,833	56,15
220,051	62,29
220,27	33,62
220,488	113,49
220,706	68,44
220,924	-7,34
221,142	7
221,36	-25,77
221,578	72,53
221,796	9,05
222,015	64,34
222,233	-7,34
222,451	129,88
222,669	-42,15
222,887	72,53
223,105	11,09
223,323	33,62
223,541	-58,54
223,759	47,96
223,977	64,34
224,195	136,02
224,413	115,54
224,631	-25,77
224,849	0,85
225,067	103,25
225,285	21,33
225,503	-38,06
225,721	-66,73
225,939	-9,39
226,157	70,48
226,375	199,51
226,592	62,29
226,81	-7,34
227,028	88,92
227,246	80,72
227,464	19,29
227,682	97,11
227,9	101,2
228,117	88,92
228,335	41,81
228,553	72,53
228,771	19,29
228,989	80,72
229,206	95,06
229,424	-48,3
229,642	21,33
229,86	-48,3
230,077	84,82
230,295	4,95
230,513	105,3
230,731	72,53
230,948	162,64
231,166	86,87
231,384	-33,96
231,601	-3,24
231,819	197,46
232,037	-42,15
232,254	31,57
232,472	123,73
232,689	-42,15
232,907	140,12
233,125	-27,82
233,342	23,38
233,56	64,34
233,777	-21,67
233,995	50
234,213	56,15
234,43	43,86
234,648	-3,24
234,865	35,67
235,083	60,24
235,3	2,9
235,518	45,91
235,735	162,64
235,953	84,82
236,17	54,1
236,388	-52,39
236,605	-27,82
236,822	93,01
237,04	11,09
237,257	101,2
237,475	-42,15
237,692	47,96
237,909	86,87
238,127	72,53
238,344	54,1
238,562	4,95
238,779	-54,44
238,996	-48,3
239,214	64,34
239,431	58,2
239,648	-76,97
239,865	97,11
240,083	105,3
240,3	-15,53
240,517	31,57
240,735	43,86
240,952	80,72
241,169	64,34
241,386	56,15
241,603	13,14
241,821	-66,73
242,038	23,38
242,255	142,16
242,472	-21,67
242,689	64,34
242,907	72,53
243,124	70,48
243,341	-3,24
243,558	23,38
243,775	-89,26
243,992	4,95
244,209	74,58
244,426	136,02
244,643	41,81
244,86	29,52
245,078	90,96
245,295	52,05
245,512	76,63
245,729	11,09
245,946	-13,48
246,163	64,34
246,38	-25,77
246,597	95,06
246,814	-7,34
247,031	90,96
247,248	-27,82
247,464	146,26
247,681	-5,29
247,898	31,57
248,115	29,52
248,332	-42,15
248,549	23,38
248,766	113,49
248,983	93,01
249,2	-13,48
249,417	121,68
249,633	-11,43
249,85	97,11
250,067	31,57
250,284	-7,34
250,501	62,29
250,717	97,11
250,934	-23,72
251,151	29,52
251,368	17,24
251,585	45,91
251,801	111,44
252,018	21,33
252,235	35,67
252,451	-17,58
252,668	13,14
252,885	97,11
253,102	136,02
253,318	7
253,535	11,09
253,752	-27,82
253,968	-42,15
254,185	9,05
254,401	7
254,618	47,96
254,835	-46,25
255,051	101,2
255,268	121,68
255,484	13,14
255,701	-25,77
255,917	76,63
256,134	-9,39
256,351	-25,77
256,567	7
256,784	-29,87
257	-27,82
257,217	88,92
257,433	56,15
257,65	19,29
257,866	72,53
258,082	11,09
258,299	-1,19
258,515	97,11
258,732	-27,82
258,948	-21,67
259,165	43,86
259,381	-42,15
259,597	23,38
259,814	39,76
260,03	11,09
260,246	11,09
260,463	47,96
260,679	121,68
260,895	7
261,112	56,15
261,328	33,62
261,544	-21,67
261,761	136,02
261,977	15,19
262,193	-50,35
262,409	103,25
262,626	70,48
262,842	21,33
263,058	35,67
263,274	72,53
263,49	37,72
263,707	76,63
263,923	93,01
264,139	-42,15
264,355	21,33
264,571	25,43
264,787	21,33
265,004	21,33
265,22	56,15
265,436	31,57
265,652	27,48
265,868	31,57
266,084	-52,39
266,3	19,29
266,516	-42,15
266,732	13,14
266,948	23,38
267,164	21,33
267,38	31,57
267,596	-21,67
267,812	70,48
268,028	27,48
268,244	-13,48
268,46	72,53
268,676	45,91
268,892	37,72
269,108	54,1
269,324	-62,63
269,54	23,38
269,756	144,21
269,972	-74,92
270,188	37,72
270,403	-1,19
270,619	-33,96
270,835	64,34
271,051	-9,39
271,267	33,62
271,483	-17,58
271,698	68,44
271,914	-3,24
272,13	27,48
272,346	31,57
272,562	39,76
272,777	80,72
272,993	82,77
273,209	-5,29
273,425	113,49
273,64	23,38
273,856	23,38
274,072	39,76
274,287	-36,01
274,503	72,53
274,719	47,96
274,934	23,38
275,15	-76,97
275,366	35,67
275,581	-9,39
275,797	4,95
276,012	39,76
276,228	-7,34
276,444	31,57
276,659	54,1
276,875	-21,67
277,09	-54,44
277,306	4,95
277,521	72,53
277,737	115,54
277,952	101,2
278,168	72,53
278,383	43,86
278,599	43,86
278,814	35,67
279,03	-11,43
279,245	45,91
279,461	-17,58
279,676	97,11
279,892	-33,96
280,107	-50,35
280,322	-1,19
280,538	127,83
280,753	-9,39
280,969	125,78
281,184	23,38
281,399	129,88
281,615	13,14
281,83	-1,19
282,045	-87,21
282,26	27,48
282,476	23,38
282,691	37,72
282,906	7
283,122	60,24
283,337	0,85
283,552	62,29
283,767	-44,2
283,983	78,68
284,198	27,48
284,413	72,53
284,628	-74,92
284,843	50
285,058	25,43
285,274	66,39
285,489	-17,58
285,704	99,16
285,919	-62,63
286,134	13,14
286,349	-19,63
286,564	23,38
286,779	47,96
286,995	86,87
287,21	-3,24
287,425	27,48
287,64	29,52
287,855	0,85
288,07	-97,45
288,285	72,53
288,5	111,44
288,715	56,15
288,93	56,15
289,145	4,95
289,36	93,01
289,575	15,19
289,79	105,3
290,004	-17,58
290,219	62,29
290,434	7
290,649	-29,87
290,864	33,62
291,079	39,76
291,294	78,68
291,509	25,43
291,724	11,09
291,938	-1,19
292,153	78,68
292,368	2,9
292,583	-36,01
292,798	101,2
293,012	-23,72
293,227	64,34
293,442	25,43
293,657	88,92
293,871	37,72
294,086	-27,82
294,301	156,5
294,516	111,44
294,73	13,14
294,945	-50,35
295,16	-1,19
295,374	88,92
295,589	72,53
295,804	37,72
296,018	35,67
296,233	88,92
296,447	15,19
296,662	-15,53
296,877	95,06
297,091	64,34
297,306	-9,39
297,52	-25,77
297,735	33,62
297,949	-33,96
298,164	0,85
298,378	78,68
298,593	13,14
298,807	-21,67
299,022	-1,19
299,236	164,69
299,451	4,95
299,665	39,76
299,88	11,09
300,094	39,76
300,309	-38,06
300,523	-72,87
300,737	15,19
300,952	64,34
301,166	-19,63
301,381	-50,35
301,595	37,72
301,809	39,76
302,024	9,05
302,238	-19,63
302,452	21,33
302,667	64,34
302,881	144,21
303,095	123,73
303,309	80,72
303,524	-93,35
303,738	-5,29
303,952	7
304,166	129,88
304,381	-25,77
304,595	86,87
304,809	-1,19
305,023	29,52
305,237	68,44
305,452	15,19
305,666	84,82
305,88	39,76
306,094	50
306,308	-3,24
306,522	129,88
306,736	21,33
306,95	31,57
307,164	-1,19
307,379	72,53
307,593	97,11
307,807	35,67
308,021	33,62
308,235	60,24
308,449	64,34
308,663	13,14
308,877	113,49
309,091	97,11
309,305	27,48
309,519	-103,59
309,733	7
309,947	2,9
310,161	107,35
310,374	86,87
310,588	86,87
310,802	-1,19
311,016	72,53
311,23	107,35
311,444	-29,87
311,658	43,86
311,872	64,34
312,085	144,21
312,299	64,34
312,513	45,91
312,727	-3,24
312,941	-1,19
313,154	37,72
313,368	80,72
313,582	99,16
313,796	31,57
314,009	15,19
314,223	113,49
314,437	39,76
314,651	72,53
314,864	23,38
315,078	31,57
315,292	-33,96
315,505	-23,72
315,719	-56,49
315,933	31,57
316,146	-5,29
316,36	23,38
316,573	84,82
316,787	70,48
317,001	-50,35
317,214	-79,02
317,428	56,15
317,641	-74,92
317,855	-17,58
318,068	0,85
318,282	-13,48
318,495	109,4
318,709	58,2
318,922	21,33
319,136	95,06
319,349	95,06
319,563	-54,44
319,776	78,68
319,99	-68,78
320,203	29,52
320,417	41,81
320,63	60,24
320,843	148,31
321,057	29,52
321,27	37,72
321,483	-29,87
321,697	170,83
321,91	119,64
322,124	47,96
322,337	88,92
322,55	11,09
322,763	70,48
322,977	-1,19
323,19	43,86
323,403	93,01
323,617	88,92
323,83	113,49
324,043	29,52
324,256	21,33
324,469	-42,15
324,683	64,34
324,896	27,48
325,109	9,05
325,322	-79,02
325,535	97,11
325,748	70,48
325,962	39,76
326,175	72,53
326,388	103,25
326,601	93,01
326,814	-5,29
327,027	52,05
327,24	125,78
327,453	-93,35
327,666	72,53
327,879	82,77
328,092	80,72
328,305	31,57
328,518	62,29
328,731	-50,35
328,944	43,86
329,157	95,06
329,37	39,76
329,583	158,55
329,796	109,4
330,009	-50,35
330,222	103,25
330,435	54,1
330,648	4,95
330,861	62,29
331,073	93,01
331,286	15,19
331,499	-19,63
331,712	-13,48
331,925	95,06
332,138	19,29
332,35	74,58
332,563	-3,24
332,776	60,24
332,989	-76,97
333,202	31,57
333,414	7
333,627	68,44
333,84	-9,39
334,053	13,14
334,265	-11,43
334,478	35,67
334,691	-1,19
334,903	11,09
335,116	7
335,329	80,72
335,541	76,63
335,754	68,44
335,966	-25,77
336,179	-27,82
336,392	-3,24
336,604	-38,06
336,817	11,09
337,029	47,96
337,242	-7,34
337,454	47,96
337,667	39,76
337,88	129,88
338,092	76,63
338,305	15,19
338,517	-19,63
338,729	54,1
338,942	64,34
339,154	-9,39
339,367	-11,43
339,579	35,67
339,792	17,24
340,004	78,68
340,217	23,38
340,429	39,76
340,641	-25,77
340,854	-36,01
341,066	-44,2
341,278	66,39
341,491	191,31
341,703	95,06
341,915	-5,29
342,128	56,15
342,34	88,92
342,552	11,09
342,764	60,24
342,977	27,48
343,189	-19,63
343,401	105,3
343,613	-11,43
343,826	95,06
344,038	-25,77
344,25	72,53
344,462	-9,39
344,674	-9,39
344,886	70,48
345,099	27,48
345,311	119,64
345,523	105,3
345,735	-5,29
345,947	41,81
346,159	80,72
346,371	35,67
346,583	68,44
346,795	224,08
347,007	72,53
347,219	37,72
347,431	72,53
347,643	191,31
347,855	93,01
348,067	72,53
348,279	-11,43
348,491	35,67
348,703	129,88
348,915	35,67
349,127	7
349,339	80,72
349,551	50
349,763	103,25
349,975	47,96
350,187	80,72
350,399	195,41
350,61	78,68
350,822	119,64
351,034	68,44
351,246	56,15
351,458	84,82
351,669	86,87
351,881	78,68
352,093	113,49
352,305	95,06
352,517	121,68
352,728	215,89
352,94	113,49
353,152	158,55
353,363	88,92
353,575	76,63
353,787	150,36
353,999	109,4
354,21	144,21
354,422	97,11
354,633	136,02
354,845	74,58
355,057	82,77
355,268	70,48
355,48	54,1
355,692	11,09
355,903	101,2
356,115	4,95
356,326	72,53
356,538	129,88
356,749	111,44
356,961	183,12
357,172	127,83
357,384	129,88
357,595	211,79
357,807	64,34
358,018	43,86
358,23	168,79
358,441	199,51
358,653	191,31
358,864	138,07
359,075	64,34
359,287	138,07
359,498	191,31
359,709	88,92
359,921	103,25
360,132	179,03
360,344	97,11
360,555	154,45
360,766	129,88
360,977	95,06
361,189	219,99
361,4	168,79
361,611	181,07
361,823	293,71
362,034	183,12
362,245	56,15
362,456	207,7
362,667	185,17
362,879	162,64
363,09	217,94
363,301	176,98
363,512	162,64
363,723	129,88
363,935	60,24
364,146	138,07
364,357	123,73
364,568	168,79
364,779	105,3
364,99	207,7
365,201	113,49
365,412	236,37
365,623	174,93
365,834	236,37
366,045	195,41
366,256	170,83
366,467	195,41
366,678	250,71
366,889	201,55
367,1	172,88
367,311	176,98
367,522	226,13
367,733	179,03
367,944	248,66
368,155	156,5
368,366	310,1
368,577	262,99
368,788	269,14
368,999	232,27
369,209	228,18
369,42	349,01
369,631	351,06
369,842	265,04
370,053	242,51
370,264	291,66
370,474	187,22
370,685	234,32
370,896	285,52
371,107	312,14
371,317	203,6
371,528	187,22
371,739	267,09
371,95	308,05
372,16	240,47
372,371	129,88
372,582	133,97
372,792	138,07
373,003	203,6
373,214	154,45
373,424	209,75
373,635	166,74
373,846	256,85
374,056	179,03
374,267	176,98
374,477	293,71
374,688	136,02
374,898	260,95
375,109	172,88
375,319	195,41
375,53	256,85
375,74	248,66
375,951	131,92
376,161	246,61
376,372	232,27
376,582	176,98
376,793	189,27
377,003	211,79
377,214	250,71
377,424	236,37
377,635	293,71
377,845	211,79
378,055	318,29
378,266	211,79
378,476	271,19
378,686	244,56
378,897	211,79
379,107	283,47
379,317	234,32
379,528	222,03
379,738	260,95
379,948	129,88
380,158	240,47
380,369	222,03
380,579	275,28
380,789	234,32
380,999	244,56
381,21	285,52
381,42	375,63
381,63	179,03
381,84	289,62
382,05	187,22
382,261	170,83
382,471	224,08
382,681	217,94
382,891	256,85
383,101	232,27
383,311	179,03
383,521	113,49
383,731	224,08
383,941	195,41
384,151	154,45
384,361	191,31
384,571	338,77
384,781	285,52
384,991	383,82
385,201	330,58
385,411	279,38
385,621	287,57
385,831	267,09
386,041	211,79
386,251	224,08
386,461	295,76
386,671	207,7
386,881	308,05
387,091	160,59
387,301	338,77
387,511	285,52
387,72	310,1
387,93	363,34
388,14	226,13
388,35	252,75
388,56	363,34
388,769	414,54
388,979	250,71
389,189	250,71
389,399	207,7
389,609	375,63
389,818	357,2
390,028	322,38
390,238	357,2
390,447	353,1
390,657	332,62
390,867	365,39
391,076	334,67
391,286	359,25
391,496	320,34
391,705	408,4
391,915	316,24
392,125	312,14
392,334	265,04
392,544	332,62
392,753	232,27
392,963	242,51
393,172	260,95
393,382	203,6
393,591	303,95
393,801	269,14
394,01	349,01
394,22	287,57
394,429	281,43
394,639	252,75
394,848	396,11
395,058	387,92
395,267	363,34
395,477	379,73
395,686	373,58
395,895	478,03
396,105	432,97
396,314	351,06
396,524	353,1
396,733	260,95
396,942	389,97
397,152	326,48
397,361	480,08
397,57	392,02
397,78	359,25
397,989	455,5
398,198	545,61
398,407	457,55
398,617	504,65
398,826	469,84
399,035	469,84
399,244	506,7
399,453	613,2
399,663	445,26
399,872	586,57
400,081	543,57
400,29	602,96
400,499	432,97
400,708	643,92
400,917	555,85
401,127	537,42
401,336	416,59
401,545	668,49
401,754	529,23
401,963	658,25
402,172	494,41
402,381	506,7
402,59	592,72
402,799	617,29
403,008	590,67
403,217	613,2
403,426	652,11
403,635	572,24
403,844	596,81
404,053	557,9
404,262	564,04
404,471	678,73
404,68	617,29
404,888	625,48
405,097	549,71
405,306	625,48
405,515	701,26
405,724	547,66
405,933	625,48
406,142	645,96
406,35	660,3
406,559	635,72
406,768	564,04
406,977	668,49
407,185	684,87
407,394	674,64
407,603	566,09
407,812	605
408,02	738,12
408,229	596,81
408,438	627,53
408,646	596,81
408,855	693,07
409,064	715,59
409,272	578,38
409,481	691,02
409,69	670,54
409,898	562
410,107	602,96
410,315	762,7
410,524	652,11
410,733	609,1
410,941	703,31
411,15	691,02
411,358	740,17
411,567	760,65
411,775	676,68
411,984	719,69
412,192	652,11
412,401	666,44
412,609	707,4
412,818	699,21
413,026	768,84
413,234	635,72
413,443	691,02
413,651	652,11
413,86	637,77
414,068	680,78
414,276	736,07
414,485	668,49
414,693	777,03
414,901	734,03
415,11	715,59
415,318	598,86
415,526	668,49
415,734	711,5
415,943	789,32
416,151	791,37
416,359	731,98
416,567	750,41
416,776	779,08
416,984	865,1
417,192	662,35
417,4	670,54
417,608	723,79
417,817	635,72
418,025	785,23
418,233	783,18
418,441	580,43
418,649	615,24
418,857	686,92
419,065	734,03
419,273	639,82
419,481	617,29
419,689	666,44
419,897	703,31
420,105	627,53
420,313	772,94
420,521	723,79
420,729	680,78
420,937	633,68
421,145	703,31
421,353	711,5
421,561	836,42
421,769	678,73
421,977	639,82
422,185	686,92
422,393	629,58
422,601	719,69
422,809	650,06
423,017	676,68
423,224	725,83
423,432	713,55
423,64	781,13
423,848	752,46
424,056	678,73
424,263	777,03
424,471	666,44
424,679	744,27
424,887	670,54
425,094	731,98
425,302	645,96
425,51	662,35
425,718	717,64
425,925	715,59
426,133	670,54
426,341	842,57
426,548	803,66
426,756	725,83
426,964	734,03
427,171	748,36
427,379	803,66
427,586	684,87
427,794	691,02
428,001	768,84
428,209	711,5
428,417	756,55
428,624	693,07
428,832	686,92
429,039	621,39
429,247	588,62
429,454	621,39
429,662	715,59
429,869	592,72
430,076	617,29
430,284	637,77
430,491	629,58
430,699	756,55
430,906	731,98
431,114	672,59
431,321	617,29
431,528	627,53
431,736	762,7
431,943	750,41
432,15	686,92
432,358	752,46
432,565	858,95
432,772	605
432,979	785,23
433,187	650,06
433,394	721,74
433,601	785,23
433,808	828,23
434,016	738,12
434,223	787,27
434,43	785,23
434,637	856,9
434,844	799,56
435,052	856,9
435,259	830,28
435,466	846,66
435,673	856,9
435,88	826,18
436,087	916,3
436,294	932,68
436,501	832,33
436,708	762,7
436,915	781,13
437,122	869,19
437,329	727,88
437,537	766,79
437,743	830,28
437,95	916,3
438,157	777,03
438,364	817,99
438,571	785,23
438,778	824,14
438,985	883,53
439,192	832,33
439,399	772,94
439,606	744,27
439,813	781,13
440,02	850,76
440,227	963,4
440,433	883,53
440,64	875,34
440,847	873,29
441,054	963,4
441,261	947,01
441,467	895,82
441,674	883,53
441,881	908,1
442,088	897,86
442,294	879,43
442,501	969,54
442,708	967,49
442,914	987,97
443,121	1006,41
443,328	953,16
443,534	975,69
443,741	1012,55
443,948	805,71
444,154	979,78
444,361	1100,61
444,568	834,38
444,774	942,92
444,981	764,75
445,187	981,83
445,394	908,1
445,6	883,53
445,807	998,21
446,013	1000,26
446,22	844,62
446,426	942,92
446,633	922,44
446,839	1043,27
447,046	867,14
447,252	949,06
447,459	963,4
447,665	840,52
447,871	932,68
448,078	990,02
448,284	969,54
448,491	979,78
448,697	1043,27
448,903	1051,46
449,11	1026,89
449,316	955,21
449,522	1069,89
449,728	1039,17
449,935	1030,98
450,141	869,19
450,347	1018,69
450,553	985,93
450,76	940,87
450,966	965,45
451,172	932,68
451,378	912,2
451,584	994,12
451,791	1059,65
451,997	947,01
452,203	924,49
452,409	992,07
452,615	967,49
452,821	973,64
453,027	822,09
453,233	1135,43
453,44	961,35
453,646	957,25
453,852	1039,17
454,058	990,02
454,264	932,68
454,47	1010,5
454,676	934,73
454,882	967,49
455,088	994,12
455,294	961,35
455,5	1004,36
455,705	1080,13
455,911	1104,71
456,117	979,78
456,323	1026,89
456,529	955,21
456,735	1020,74
456,941	1018,69
457,147	1174,34
457,352	963,4
457,558	959,3
457,764	1108,8
457,97	961,35
458,176	1137,48
458,381	1061,7
458,587	1153,86
458,793	1047,37
458,999	953,16
459,204	1051,46
459,41	1117
459,616	1053,51
459,821	1112,9
460,027	1030,98
460,233	1160
460,438	1086,28
460,644	1170,24
460,85	1119,04
461,055	1133,38
461,261	1112,9
461,466	994,12
461,672	1045,32
461,878	1117
462,083	1166,15
462,289	897,86
462,494	1086,28
462,7	1121,09
462,905	1104,71
463,111	1061,7
463,316	1143,62
463,522	1250,11
463,727	1053,51
463,932	1108,8
464,138	1145,67
464,343	1227,59
464,549	1203,01
464,754	1121,09
464,959	1129,28
465,165	1121,09
465,37	1178,44
465,575	1162,05
465,781	1219,39
465,986	1178,44
466,191	1286,98
466,397	1235,78
466,602	1178,44
466,807	1248,07
467,012	1241,92
467,218	1237,83
467,423	1268,55
467,628	1250,11
467,833	1233,73
468,038	1342,27
468,244	1184,58
468,449	1348,42
468,654	1276,74
468,859	1317,7
469,064	1299,27
469,269	1223,49
469,474	1444,67
469,679	1377,09
469,885	1379,14
470,09	1276,74
470,295	1350,46
470,5	1354,56
470,705	1422,14
470,91	1280,83
471,115	1407,81
471,32	1393,47
471,525	1563,45
471,73	1446,72
471,935	1430,34
472,139	1268,55
472,344	1383,23
472,549	1450,82
472,754	1456,96
472,959	1465,15
473,164	1413,95
473,369	1499,97
473,574	1616,7
473,778	1559,36
473,983	1495,87
474,188	1522,49
474,393	1547,07
474,598	1528,64
474,802	1524,54
475,007	1487,68
475,212	1743,67
475,417	1504,06
475,621	1596,22
475,826	1563,45
476,031	1542,97
476,235	1479,49
476,44	1764,15
476,645	1676,09
476,849	1700,67
477,054	1690,43
477,259	1608,51
477,463	1700,67
477,668	1798,97
477,872	1899,32
478,077	1676,09
478,282	1678,14
478,486	1676,09
478,691	1768,25
478,895	1694,52
479,1	1856,31
479,304	1923,9
479,509	1690,43
479,713	1905,46
479,918	1747,77
480,122	1850,17
480,326	1739,58
480,531	1749,82
480,735	2005,81
480,94	1801,02
481,144	1923,9
481,348	1864,5
481,553	1907,51
481,757	1745,72
481,961	1977,14
482,166	1878,84
482,37	1895,22
482,574	1784,63
482,778	1899,32
482,983	1964,86
483,187	1841,98
483,391	1841,98
483,595	1932,09
483,8	1909,56
484,004	1977,14
484,208	1868,6
484,412	1868,6
484,616	1880,89
484,821	1874,74
485,025	1817,4
485,229	1794,87
485,433	1837,88
485,637	1792,83
485,841	1833,79
486,045	1850,17
486,249	1854,27
486,453	1770,3
486,657	1811,26
486,861	1794,87
487,065	1850,17
487,269	1858,36
487,473	1751,87
487,677	1956,66
487,881	2009,91
488,085	1776,44
488,289	1932,09
488,493	1817,4
488,697	2061,11
488,901	1880,89
489,105	1981,24
489,309	1915,7
489,512	2093,88
489,716	2077,49
489,92	2046,77
490,124	1942,33
490,328	2169,65
490,531	1909,56
490,735	2132,79
490,939	1895,22
491,143	1925,94
491,346	1921,85
491,55	1956,66
491,754	1991,48
491,958	2122,55
492,161	2097,97
492,365	2032,44
492,569	2036,53
492,772	2091,83
492,976	2235,19
493,18	2071,35
493,383	2132,79
493,587	2110,26
493,79	2169,65
493,994	1973,05
494,197	2054,97
494,401	2091,83
494,605	2136,88
494,808	2165,56
495,012	1993,53
495,215	2192,18
495,419	2224,95
495,622	2104,12
495,825	2124,6
496,029	2177,84
496,232	2175,8
496,436	2175,8
496,639	2188,08
496,843	2251,57
497,046	2091,83
497,249	2153,27
497,453	2145,08
497,656	2052,92
497,859	2200,37
498,063	2132,79
498,266	2169,65
498,469	1966,9
498,673	2063,16
498,876	2095,93
499,079	2030,39
499,282	2028,34
499,485	2251,57
499,689	2089,78
499,892	2087,73
500,095	2050,87
500,298	2075,45
500,501	2048,82
500,705	2003,77
500,908	2087,73
501,111	1973,05
501,314	2052,92
501,517	2022,2
501,72	2089,78
501,923	1983,29
502,126	2030,39
502,329	2128,69
502,532	2128,69
502,735	2059,06
502,938	1964,86
503,141	1997,62
503,344	1977,14
503,547	2102,07
503,75	1981,24
503,953	2087,73
504,156	2128,69
504,359	2046,77
504,562	1993,53
504,765	2063,16
504,968	2128,69
505,17	2042,68
505,373	2003,77
505,576	2177,84
505,779	2079,54
505,982	2024,25
506,185	2116,41
506,387	2251,57
506,59	2075,45
506,793	2159,41
506,996	2018,1
507,198	2050,87
507,401	2161,46
507,604	2227
507,807	2083,64
508,009	2126,64
508,212	2202,42
508,415	2145,08
508,617	2028,34
508,82	2194,23
509,022	2030,39
509,225	2173,75
509,428	2214,71
509,63	2087,73
509,833	1878,84
510,035	2192,18
510,238	2083,64
510,44	2059,06
510,643	2169,65
510,845	2095,93
511,048	2284,34
511,25	2050,87
511,453	2218,8
511,655	2177,84
511,858	2290,48
512,06	2194,23
512,262	2138,93
512,465	2024,25
512,667	2112,31
512,87	2126,64
513,072	2095,93
513,274	2118,45
513,477	2022,2
513,679	2071,35
513,881	2118,45
514,084	2169,65
514,286	2245,43
514,488	2104,12
514,69	2091,83
514,893	2036,53
515,095	2100,02
515,297	2083,64
515,499	2130,74
515,701	2018,1
515,904	2186,04
516,106	2061,11
516,308	1997,62
516,51	2075,45
516,712	1948,47
516,914	1889,08
517,116	1915,7
517,318	1895,22
517,52	1991,48
517,722	2075,45
517,925	1934,14
518,127	1956,66
518,329	1964,86
518,531	1973,05
518,733	2011,96
518,935	1880,89
519,136	1985,34
519,338	2071,35
519,54	2022,2
519,742	2143,03
519,944	2186,04
520,146	2124,6
520,348	1995,57
520,55	2227
520,752	2183,99
520,954	2222,9
521,155	2249,52
521,357	2104,12
521,559	2235,19
521,761	2181,94
521,963	2149,17
522,164	2194,23
522,366	2272,05
522,568	2251,57
522,77	2192,18
522,971	2292,53
523,173	2216,76
523,375	2216,76
523,576	2100,02
523,778	2243,38
523,98	2149,17
524,181	2349,87
524,383	2267,95
524,584	2186,04
524,786	2272,05
524,988	2085,69
525,189	2386,74
525,391	2192,18
525,592	2112,31
525,794	2216,76
525,995	2157,36
526,197	2167,6
526,398	2050,87
526,6	2011,96
526,801	2136,88
527,003	2110,26
527,204	2100,02
527,406	2145,08
527,607	2018,1
527,808	2077,49
528,01	2147,12
528,211	2171,7
528,412	2095,93
528,614	2257,71
528,815	2300,72
529,016	2227
529,218	2167,6
529,419	2177,84
529,62	2169,65
529,822	2145,08
530,023	2227
530,224	2169,65
530,425	2112,31
530,626	2100,02
530,828	2079,54
531,029	2106,17
531,23	2257,71
531,431	2102,07
531,632	2186,04
531,833	2126,64
532,035	2126,64
532,236	2050,87
532,437	2085,69
532,638	2087,73
532,839	2052,92
533,04	2085,69
533,241	2050,87
533,442	2034,49
533,643	2114,36
533,844	2042,68
534,045	1956,66
534,246	2083,64
534,447	2061,11
534,648	1964,86
534,849	2138,93
535,05	1948,47
535,251	1981,24
535,451	2128,69
535,652	2046,77
535,853	2095,93
536,054	2194,23
536,255	2128,69
536,456	2003,77
536,657	1960,76
536,857	2112,31
537,058	2067,25
537,259	2095,93
537,46	2020,15
537,66	1954,62
537,861	1948,47
538,062	1938,23
538,263	1923,9
538,463	1891,13
538,664	1901,37
538,865	1934,14
539,065	1868,6
539,266	2018,1
539,466	1971
539,667	2014,01
539,868	1952,57
540,068	1973,05
540,269	2005,81
540,469	1950,52
540,67	1850,17
540,87	1862,46
541,071	1841,98
541,271	1932,09
541,472	1901,37
541,672	1866,55
541,873	1981,24
542,073	1801,02
542,274	1932,09
542,474	2001,72
542,675	1911,61
542,875	1901,37
543,075	1715
543,276	1776,44
543,476	1897,27
543,676	2003,77
543,877	1831,74
544,077	1805,11
544,277	1889,08
544,478	1858,36
544,678	1956,66
544,878	1858,36
545,078	1895,22
545,279	1891,13
545,479	1848,12
545,679	1872,7
545,879	1831,74
546,079	1905,46
546,28	1727,29
546,48	1815,35
546,68	1927,99
546,88	1813,31
547,08	1880,89
547,28	1792,83
547,48	1723,2
547,68	1958,71
547,88	1807,16
548,081	1817,4
548,281	1770,3
548,481	1768,25
548,681	1809,21
548,881	1766,2
549,081	1766,2
549,28	1809,21
549,48	1841,98
549,68	1878,84
549,88	1807,16
550,08	1768,25
550,28	1772,35
550,48	1854,27
550,68	1848,12
550,88	1790,78
551,08	1653,56
551,279	1866,55
551,479	1743,67
551,679	1911,61
551,879	1704,76
552,079	1760,06
552,278	1792,83
552,478	1829,69
552,678	1798,97
552,878	1903,42
553,077	1788,73
553,277	1772,35
553,477	1813,31
553,676	1794,87
553,876	1702,72
554,076	1784,63
554,275	1819,45
554,475	1751,87
554,674	1790,78
554,874	1772,35
555,074	1725,24
555,273	1678,14
555,473	1772,35
555,672	1741,63
555,872	1801,02
556,071	1825,59
556,271	1866,55
556,47	1712,96
556,67	1600,32
556,869	1770,3
557,068	1669,95
557,268	1645,37
557,467	1725,24
557,667	1776,44
557,866	1721,15
558,065	1606,46
558,265	1682,24
558,464	1755,96
558,663	1522,49
558,863	1733,43
559,062	1620,8
559,261	1708,86
559,461	1624,89
559,66	1641,28
559,859	1637,18
560,058	1698,62
560,258	1540,93
560,457	1583,93
560,656	1809,21
560,855	1651,52
561,054	1690,43
561,253	1731,39
561,453	1667,9
561,652	1680,19
561,851	1676,09
562,05	1571,65
562,249	1536,83
562,448	1581,89
562,647	1602,36
562,846	1614,65
563,045	1696,57
563,244	1678,14
563,443	1655,61
563,642	1596,22
563,841	1665,85
564,04	1698,62
564,239	1575,74
564,438	1633,08
564,637	1551,17
564,836	1577,79
565,035	1635,13
565,234	1585,98
565,432	1710,91
565,631	1667,9
565,83	1579,84
566,029	1567,55
566,228	1585,98
566,427	1649,47
566,625	1487,68
566,824	1573,69
567,023	1610,56
567,222	1563,45
567,42	1481,53
567,619	1571,65
567,818	1594,17
568,016	1663,8
568,215	1502,01
568,414	1555,26
568,612	1715
568,811	1516,35
569,01	1514,3
569,208	1567,55
569,407	1604,41
569,605	1553,21
569,804	1528,64
570,002	1651,52
570,201	1520,45
570,4	1569,6
570,598	1579,84
570,797	1522,49
570,995	1444,67
571,193	1522,49
571,392	1383,23
571,59	1493,82
571,789	1510,21
571,987	1620,8
572,186	1585,98
572,384	1585,98
572,582	1497,92
572,781	1684,28
572,979	1473,34
573,177	1557,31
573,376	1514,3
573,574	1502,01
573,772	1483,58
573,971	1401,66
574,169	1342,27
574,367	1590,08
574,565	1440,58
574,763	1461,06
574,962	1469,25
575,16	1477,44
575,358	1391,42
575,556	1362,75
575,754	1448,77
575,952	1454,91
576,151	1504,06
576,349	1520,45
576,547	1465,15
576,745	1413,95
576,943	1379,14
577,141	1293,12
577,339	1264,45
577,537	1448,77
577,735	1497,92
577,933	1520,45
578,131	1473,34
578,329	1555,26
578,527	1424,19
578,725	1430,34
578,923	1325,89
579,121	1438,53
579,319	1268,55
579,516	1411,9
579,714	1536,83
579,912	1465,15
580,11	1456,96
580,308	1448,77
580,506	1389,38
580,704	1475,39
580,901	1323,84
581,099	1579,84
581,297	1399,62
581,495	1506,11
581,692	1489,73
581,89	1497,92
582,088	1551,17
582,285	1542,97
582,483	1559,36
582,681	1547,07
582,878	1512,25
583,076	1475,39
583,274	1481,53
583,471	1538,88
583,669	1434,43
583,866	1448,77
584,064	1432,38
584,262	1442,62
584,459	1479,49
584,657	1442,62
584,854	1473,34
585,052	1432,38
585,249	1575,74
585,447	1467,2
585,644	1383,23
585,841	1473,34
586,039	1477,44
586,236	1528,64
586,434	1430,34
586,631	1403,71
586,828	1520,45
587,026	1522,49
587,223	1350,46
587,42	1413,95
587,618	1413,95
587,815	1391,42
588,012	1364,8
588,21	1411,9
588,407	1538,88
588,604	1424,19
588,801	1418,05
588,999	1416
589,196	1389,38
589,393	1360,7
589,59	1332,03
589,787	1319,75
589,984	1418,05
590,182	1350,46
590,379	1282,88
590,576	1313,6
590,773	1297,22
590,97	1426,24
591,167	1418,05
591,364	1356,61
591,561	1399,62
591,758	1436,48
591,955	1438,53
592,152	1338,18
592,349	1391,42
592,546	1272,64
592,743	1258,31
592,94	1459,01
593,137	1407,81
593,334	1454,91
593,531	1381,18
593,727	1327,94
593,924	1413,95
594,121	1366,85
594,318	1362,75
594,515	1538,88
594,712	1497,92
594,908	1362,75
595,105	1301,31
595,302	1284,93
595,499	1391,42
595,696	1426,24
595,892	1246,02
596,089	1385,28
596,286	1325,89
596,482	1381,18
596,679	1428,29
596,876	1332,03
597,072	1381,18
597,269	1297,22
597,466	1430,34
597,662	1272,64
597,859	1426,24
598,055	1280,83
598,252	1375,04
598,448	1389,38
598,645	1350,46
598,841	1403,71
599,038	1364,8
599,234	1389,38
599,431	1362,75
599,627	1407,81
599,824	1424,19
600,02	1377,09
600,217	1227,59
600,413	1338,18
600,609	1323,84
600,806	1571,65
601,002	1340,22
601,198	1280,83
601,395	1307,46
601,591	1358,66
601,787	1235,78
601,984	1391,42
602,18	1305,41
602,376	1323,84
602,572	1391,42
602,769	1383,23
602,965	1346,37
603,161	1383,23
603,357	1489,73
603,553	1348,42
603,75	1375,04
603,946	1391,42
604,142	1334,08
604,338	1456,96
604,534	1375,04
604,73	1372,99
604,926	1289,03
605,122	1454,91
605,318	1293,12
605,514	1307,46
605,71	1305,41
605,906	1397,57
606,102	1235,78
606,298	1391,42
606,494	1377,09
606,69	1332,03
606,886	1364,8
607,082	1360,7
607,278	1383,23
607,474	1372,99
607,67	1266,5
607,866	1262,4
608,062	1393,47
608,257	1370,94
608,453	1256,26
608,649	1383,23
608,845	1360,7
609,041	1252,16
609,236	1338,18
609,432	1276,74
609,628	1309,51
609,824	1381,18
610,019	1307,46
610,215	1379,14
610,411	1323,84
610,606	1383,23
610,802	1375,04
610,998	1243,97
611,193	1323,84
611,389	1270,59
611,584	1325,89
611,78	1307,46
611,976	1334,08
612,171	1471,29
612,367	1407,81
612,562	1387,33
612,758	1362,75
612,953	1229,63
613,149	1250,11
613,344	1307,46
613,539	1383,23
613,735	1178,44
613,93	1434,43
614,126	1424,19
614,321	1391,42
614,517	1360,7
614,712	1364,8
614,907	1504,06
615,103	1430,34
615,298	1309,51
615,493	1301,31
615,688	1170,24
615,884	1403,71
616,079	1344,32
616,274	1264,45
616,47	1129,28
616,665	1094,47
616,86	1346,37
617,055	1346,37
617,25	1307,46
617,445	1342,27
617,641	1307,46
617,836	1366,85
618,031	1291,07
618,226	1454,91
618,421	1315,65
618,616	1225,54
618,811	1397,57
619,006	1383,23
619,201	1381,18
619,396	1426,24
619,591	1252,16
619,786	1497,92
619,981	1418,05
620,176	1436,48
620,371	1225,54
620,566	1420,1
620,761	1340,22
620,956	1362,75
621,151	1346,37
621,346	1461,06
621,541	1325,89
621,735	1413,95
621,93	1334,08
622,125	1362,75
622,32	1346,37
622,515	1194,82
622,709	1534,78
622,904	1340,22
623,099	1356,61
623,294	1440,58
623,488	1413,95
623,683	1360,7
623,878	1344,32
624,072	1397,57
624,267	1248,07
624,462	1272,64
624,656	1157,96
624,851	1309,51
625,046	1325,89
625,24	1264,45
625,435	1284,93
625,629	1289,03
625,824	1370,94
626,018	1274,69
626,213	1370,94
626,407	1239,87
626,602	1301,31
626,796	1227,59
626,991	1332,03
627,185	1186,63
627,38	1213,25
627,574	1282,88
627,768	1176,39
627,963	1243,97
628,157	1299,27
628,352	1090,37
628,546	1096,52
628,74	1162,05
628,935	1270,59
629,129	1098,56
629,323	1192,77
629,517	1047,37
629,712	1153,86
629,906	1203,01
630,1	1227,59
630,294	1184,58
630,489	1203,01
630,683	1129,28
630,877	1149,76
631,071	1200,96
631,265	1127,24
631,459	1162,05
631,653	1256,26
631,848	1200,96
632,042	1125,19
632,236	1071,94
632,43	1225,54
632,624	1104,71
632,818	1149,76
633,012	1239,87
633,206	1143,62
633,4	1186,63
633,594	1170,24
633,788	1119,04
633,982	1252,16
634,176	1274,69
634,369	1153,86
634,563	1266,5
634,757	998,21
634,951	1284,93
635,145	1219,39
635,339	1059,65
635,533	1170,24
635,726	1248,07
635,92	1137,48
636,114	1196,87
636,308	1104,71
636,501	1188,68
636,695	1151,81
636,889	1133,38
637,083	1172,29
637,276	1076,04
637,47	1129,28
637,664	1160
637,857	1121,09
638,051	1178,44
638,244	1137,48
638,438	1184,58
638,632	1272,64
638,825	1129,28
639,019	1174,34
639,212	1082,18
639,406	1266,5
639,599	1112,9
639,793	1127,24
639,986	1096,52
640,18	1153,86
640,373	1178,44
640,567	1139,52
640,76	1137,48
640,954	1145,67
641,147	1186,63
641,34	1082,18
641,534	1155,91
641,727	1203,01
641,92	1096,52
642,114	1069,89
642,307	1211,2
642,5	1069,89
642,694	1121,09
642,887	1104,71
643,08	1135,43
643,273	1114,95
643,467	1080,13
643,66	1067,85
643,853	1063,75
644,046	1102,66
644,239	1104,71
644,432	957,25
644,626	973,64
644,819	1033,03
645,012	1088,32
645,205	1106,76
645,398	1178,44
645,591	1117
645,784	983,88
645,977	1047,37
646,17	1012,55
646,363	1088,32
646,556	1028,93
646,749	1061,7
646,942	1129,28
647,135	1096,52
647,328	1067,85
647,521	1047,37
647,714	1162,05
647,907	1028,93
648,099	1020,74
648,292	1073,99
648,485	1053,51
648,678	1080,13
648,871	957,25
649,064	1049,41
649,256	1006,41
649,449	983,88
649,642	1043,27
649,835	1102,66
650,027	990,02
650,22	1145,67
650,413	1069,89
650,605	1094,47
650,798	1028,93
650,991	994,12
651,183	1004,36
651,376	1088,32
651,568	1039,17
651,761	992,07
651,954	1065,8
652,146	1037,13
652,339	1014,6
652,531	1057,61
652,724	924,49
652,916	1035,08
653,109	871,24
653,301	1022,79
653,494	1123,14
653,686	1055,56
653,879	1211,2
654,071	1028,93
654,263	1076,04
654,456	869,19
654,648	1028,93
654,84	990,02
655,033	963,4
655,225	1057,61
655,417	924,49
655,61	955,21
655,802	940,87
655,994	969,54
656,186	895,82
656,379	901,96
656,571	930,63
656,763	961,35
656,955	893,77
657,148	910,15
657,34	981,83
657,532	979,78
657,724	897,86
657,916	987,97
658,108	977,73
658,3	957,25
658,492	899,91
658,684	973,64
658,876	1014,6
659,068	992,07
659,26	920,39
659,452	867,14
659,644	979,78
659,836	990,02
660,028	977,73
660,22	942,92
660,412	949,06
660,604	990,02
660,796	1080,13
660,988	1028,93
661,18	949,06
661,372	1086,28
661,563	965,45
661,755	1002,31
661,947	1012,55
662,139	863,05
662,331	865,1
662,522	924,49
662,714	1047,37
662,906	916,3
663,097	955,21
663,289	998,21
663,481	836,42
663,673	1012,55
663,864	891,72
664,056	953,16
664,247	1047,37
664,439	871,24
664,631	916,3
664,822	1104,71
665,014	906,06
665,205	895,82
665,397	922,44
665,588	1047,37
665,78	858,95
665,971	971,59
666,163	891,72
666,354	1006,41
666,546	971,59
666,737	883,53
666,929	932,68
667,12	916,3
667,311	994,12
667,503	932,68
667,694	987,97
667,885	904,01
668,077	957,25
668,268	824,14
668,459	1012,55
668,651	871,24
668,842	904,01
669,033	858,95
669,224	830,28
669,416	1088,32
669,607	957,25
669,798	940,87
669,989	928,58
670,18	914,25
670,371	914,25
670,563	875,34
670,754	990,02
670,945	957,25
671,136	957,25
671,327	865,1
671,518	973,64
671,709	971,59
671,9	887,62
672,091	895,82
672,282	998,21
672,473	908,1
672,664	848,71
672,855	891,72
673,046	928,58
673,237	873,29
673,428	926,54
673,619	979,78
673,809	912,2
674	979,78
674,191	979,78
674,382	863,05
674,573	916,3
674,764	899,91
674,954	1030,98
675,145	883,53
675,336	889,67
675,527	881,48
675,717	871,24
675,908	875,34
676,099	932,68
676,289	922,44
676,48	803,66
676,671	963,4
676,861	820,04
677,052	936,78
677,243	797,51
677,433	809,8
677,624	965,45
677,814	858,95
678,005	873,29
678,195	924,49
678,386	822,09
678,576	858,95
678,767	750,41
678,957	801,61
679,148	846,66
679,338	883,53
679,529	836,42
679,719	895,82
679,909	922,44
680,1	924,49
680,29	906,06
680,481	856,9
680,671	914,25
680,861	897,86
681,052	826,18
681,242	734,03
681,432	842,57
681,622	934,73
681,813	817,99
682,003	883,53
682,193	744,27
682,383	871,24
682,573	793,42
682,764	807,75
682,954	826,18
683,144	881,48
683,334	807,75
683,524	793,42
683,714	912,2
683,904	871,24
684,094	772,94
684,284	738,12
684,474	906,06
684,664	842,57
684,854	832,33
685,044	858,95
685,234	764,75
685,424	807,75
685,614	777,03
685,804	920,39
685,994	797,51
686,184	727,88
686,374	652,11
686,564	658,25
686,753	721,74
686,943	594,76
687,133	645,96
687,323	578,38
687,513	662,35
687,702	596,81
687,892	594,76
688,082	697,16
688,272	686,92
688,461	598,86
688,651	652,11
688,841	617,29
689,03	693,07
689,22	645,96
689,41	586,57
689,599	615,24
689,789	547,66
689,979	715,59
690,168	605
690,358	703,31
690,547	619,34
690,737	670,54
690,926	641,87
691,116	654,16
691,305	768,84
691,495	766,79
691,684	676,68
691,874	527,18
692,063	723,79
692,252	781,13
692,442	760,65
692,631	645,96
692,82	764,75
693,01	752,46
693,199	744,27
693,388	731,98
693,578	715,59
693,767	822,09
693,956	715,59
694,146	637,77
694,335	768,84
694,524	787,27
694,713	817,99
694,902	740,17
695,092	752,46
695,281	727,88
695,47	777,03
695,659	752,46
695,848	781,13
696,037	803,66
696,226	881,48
696,415	770,89
696,604	928,58
696,793	924,49
696,982	797,51
697,171	916,3
697,36	768,84
697,549	920,39
697,738	682,83
697,927	807,75
698,116	772,94
698,305	750,41
698,494	805,71
698,683	852,81
698,872	1012,55
699,061	793,42
699,25	789,32
699,438	709,45
699,627	748,36
699,816	922,44
700,005	764,75
700,193	709,45
700,382	785,23
700,571	856,9
700,76	811,85
700,948	848,71
701,137	801,61
701,326	840,52
701,514	611,15
701,703	817,99
701,892	715,59
702,08	889,67
702,269	766,79
702,457	742,22
702,646	850,76
702,834	813,9
703,023	770,89
703,212	848,71
703,4	750,41
703,589	719,69
703,777	727,88
703,965	850,76
704,154	729,93
704,342	695,11
704,531	670,54
704,719	752,46
704,907	785,23
705,096	768,84
705,284	801,61
705,472	772,94
705,661	758,6
705,849	908,1
706,037	834,38
706,226	801,61
706,414	799,56
706,602	779,08
706,79	842,57
706,979	719,69
707,167	781,13
707,355	666,44
707,543	789,32
707,731	711,5
707,919	777,03
708,107	762,7
708,296	654,16
708,484	721,74
708,672	740,17
708,86	738,12
709,048	772,94
709,236	809,8
709,424	772,94
709,612	846,66
709,8	746,31
709,988	729,93
710,176	861
710,364	940,87
710,551	758,6
710,739	764,75
710,927	766,79
711,115	805,71
711,303	744,27
711,491	840,52
711,679	809,8
711,866	858,95
712,054	801,61
712,242	740,17
712,43	807,75
712,617	756,55
712,805	867,14
712,993	760,65
713,181	678,73
713,368	863,05
713,556	719,69
713,744	740,17
713,931	926,54
714,119	772,94
714,306	768,84
714,494	793,42
714,682	813,9
714,869	691,02
715,057	772,94
715,244	672,59
715,432	797,51
715,619	750,41
715,807	678,73
715,994	723,79
716,182	709,45
716,369	746,31
716,556	791,37
716,744	711,5
716,931	715,59
717,119	623,44
717,306	672,59
717,493	715,59
717,681	613,2
717,868	660,3
718,055	668,49
718,242	676,68
718,43	678,73
718,617	670,54
718,804	648,01
718,991	688,97
719,179	637,77
719,366	670,54
719,553	588,62
719,74	568,14
719,927	635,72
720,114	666,44
720,301	592,72
720,488	523,09
720,676	596,81
720,863	613,2
721,05	746,31
721,237	674,64
721,424	596,81
721,611	723,79
721,798	514,89
721,985	594,76
722,172	658,25
722,358	662,35
722,545	668,49
722,732	801,61
722,919	629,58
723,106	705,35
723,293	678,73
723,48	709,45
723,667	529,23
723,853	680,78
724,04	684,87
724,227	658,25
724,414	621,39
724,6	699,21
724,787	815,94
724,974	670,54
725,161	605
725,347	588,62
725,534	680,78
725,72	660,3
725,907	660,3
726,094	652,11
726,28	590,67
726,467	594,76
726,653	568,14
726,84	713,55
727,027	748,36
727,213	545,61
727,4	701,26
727,586	668,49
727,773	615,24
727,959	555,85
728,145	633,68
728,332	584,52
728,518	518,99
728,705	588,62
728,891	652,11
729,077	676,68
729,264	580,43
729,45	488,27
729,636	695,11
729,823	662,35
730,009	719,69
730,195	639,82
730,382	654,16
730,568	600,91
730,754	658,25
730,94	555,85
731,126	695,11
731,313	637,77
731,499	537,42
731,685	611,15
731,871	645,96
732,057	715,59
732,243	650,06
732,429	656,2
732,615	711,5
732,801	662,35
732,987	660,3
733,173	660,3
733,359	627,53
733,545	719,69
733,731	600,91
733,917	727,88
734,103	721,74
734,289	596,81
734,475	613,2
734,661	738,12
734,847	707,4
735,033	723,79
735,219	766,79
735,404	613,2
735,59	660,3
735,776	699,21
735,962	703,31
736,148	703,31
736,333	738,12
736,519	684,87
736,705	670,54
736,89	670,54
737,076	727,88
737,262	633,68
737,447	637,77
737,633	645,96
737,819	613,2
738,004	699,21
738,19	691,02
738,375	666,44
738,561	645,96
738,747	562
738,932	641,87
739,118	758,6
739,303	781,13
739,489	729,93
739,674	654,16
739,859	555,85
740,045	719,69
740,23	670,54
740,416	523,09
740,601	719,69
740,786	639,82
740,972	611,15
741,157	699,21
741,342	641,87
741,528	580,43
741,713	643,92
741,898	633,68
742,084	613,2
742,269	635,72
742,454	670,54
742,639	766,79
742,824	691,02
743,01	639,82
743,195	744,27
743,38	617,29
743,565	666,44
743,75	678,73
743,935	686,92
744,12	727,88
744,305	572,24
744,49	641,87
744,675	674,64
744,86	617,29
745,045	750,41
745,23	686,92
745,415	625,48
745,6	719,69
745,785	693,07
745,97	703,31
746,155	719,69
746,34	764,75
746,525	705,35
746,71	682,83
746,895	674,64
747,079	695,11
747,264	582,48
747,449	641,87
747,634	551,76
747,819	621,39
748,003	576,33
748,188	613,2
748,373	727,88
748,557	752,46
748,742	637,77
748,927	645,96
749,111	635,72
749,296	568,14
749,481	621,39
749,665	645,96
749,85	559,95
750,034	684,87
750,219	539,47
750,404	596,81
750,588	654,16
750,773	602,96
750,957	611,15
751,141	590,67
751,326	670,54
751,51	564,04
751,695	584,52
751,879	600,91
752,064	676,68
752,248	576,33
752,432	703,31
752,617	670,54
752,801	697,16
752,985	605
753,17	719,69
753,354	658,25
753,538	648,01
753,722	488,27
753,907	596,81
754,091	576,33
754,275	633,68
754,459	523,09
754,643	613,2
754,828	666,44
755,012	654,16
755,196	594,76
755,38	621,39
755,564	547,66
755,748	613,2
755,932	625,48
756,116	668,49
756,3	650,06
756,484	602,96
756,668	582,48
756,852	486,22
757,036	602,96
757,22	619,34
757,404	549,71
757,588	463,69
757,772	613,2
757,956	512,85
758,14	584,52
758,323	490,32
758,507	580,43
758,691	568,14
758,875	564,04
759,059	490,32
759,242	445,26
759,426	471,89
759,61	363,34
759,794	297,81
759,977	400,21
760,161	373,58
760,345	281,43
760,528	271,19
760,712	197,46
760,895	226,13
761,079	129,88
761,263	211,79
761,446	129,88
761,63	203,6
761,813	195,41
761,997	93,01
762,18	125,78
762,364	133,97
762,547	37,72
762,731	105,3
762,914	119,64
763,098	109,4
763,281	125,78
763,464	142,16
763,648	158,55
763,831	170,83
764,015	95,06
764,198	240,47
764,381	82,77
764,564	191,31
764,748	228,18
764,931	326,48
765,114	267,09
765,297	168,79
765,481	195,41
765,664	353,1
765,847	318,29
766,03	383,82
766,213	234,32
766,397	267,09
766,58	301,9
766,763	475,98
766,946	289,62
767,129	400,21
767,312	318,29
767,495	437,07
767,678	398,16
767,861	478,03
768,044	471,89
768,227	443,21
768,41	475,98
768,593	508,75
768,776	475,98
768,959	518,99
769,142	557,9
769,324	594,76
769,507	547,66
769,69	537,42
769,873	547,66
770,056	691,02
770,239	488,27
770,421	625,48
770,604	643,92
770,787	512,85
770,97	576,33
771,152	580,43
771,335	582,48
771,518	463,69
771,7	635,72
771,883	637,77
772,066	543,57
772,248	656,2
772,431	684,87
772,613	609,1
772,796	510,8
772,978	633,68
773,161	627,53
773,343	523,09
773,526	574,28
773,708	424,78
773,891	570,19
774,073	562
774,256	576,33
774,438	670,54
774,621	594,76
774,803	586,57
774,985	545,61
775,168	580,43
775,35	609,1
775,532	666,44
775,715	504,65
775,897	584,52
776,079	576,33
776,261	510,8
776,444	662,35
776,626	580,43
776,808	600,91
776,99	539,47
777,173	650,06
777,355	586,57
777,537	590,67
777,719	557,9
777,901	518,99
778,083	557,9
778,265	461,65
778,447	639,82
778,629	523,09
778,811	621,39
778,993	559,95
779,175	635,72
779,357	645,96
779,539	531,28
779,721	566,09
779,903	693,07
780,085	506,7
780,267	506,7
780,449	584,52
780,631	594,76
780,812	578,38
780,994	553,8
781,176	621,39
781,358	516,94
781,54	484,17
781,721	537,42
781,903	504,65
782,085	539,47
782,267	572,24
782,448	543,57
782,63	514,89
782,812	523,09
782,993	572,24
783,175	518,99
783,357	457,55
783,538	574,28
783,72	494,41
783,901	504,65
784,083	480,08
784,264	545,61
784,446	449,36
784,627	449,36
784,809	502,61
784,99	420,69
785,172	570,19
785,353	518,99
785,535	482,13
785,716	502,61
785,897	416,59
786,079	521,04
786,26	531,28
786,441	514,89
786,623	430,93
786,804	465,74
786,985	478,03
787,167	424,78
787,348	545,61
787,529	428,88
787,71	537,42
787,891	465,74
788,073	371,54
788,254	422,73
788,435	529,23
788,616	482,13
788,797	338,77
788,978	422,73
789,159	365,39
789,34	449,36
789,522	445,26
789,703	447,31
789,884	461,65
790,065	383,82
790,246	518,99
790,427	410,45
790,607	447,31
790,788	484,17
790,969	301,9
791,15	428,88
791,331	461,65
791,512	410,45
791,693	383,82
791,874	346,96
792,054	553,8
792,235	445,26
792,416	465,74
792,597	340,82
792,778	416,59
792,958	379,73
793,139	383,82
793,32	412,5
793,5	357,2
793,681	506,7
793,862	445,26
794,042	328,53
794,223	283,47
794,404	371,54
794,584	281,43
794,765	445,26
794,945	379,73
795,126	367,44
795,306	469,84
795,487	420,69
795,667	326,48
795,848	404,3
796,028	332,62
796,209	324,43
796,389	369,49
796,57	381,78
796,75	373,58
796,93	359,25
797,111	394,06
797,291	306
797,471	332,62
797,652	373,58
797,832	336,72
798,012	316,24
798,192	334,67
798,373	316,24
798,553	320,34
798,733	359,25
798,913	334,67
799,093	306
799,274	445,26
799,454	457,55
799,634	414,54
799,814	416,59
799,994	465,74
800,174	396,11
800,354	299,86
800,534	342,86
800,714	330,58
800,894	293,71
801,074	277,33
801,254	297,81
801,434	414,54
801,614	379,73
801,794	314,19
801,974	1502,01
802,154	330,58
802,334	349,01
802,514	248,66
802,693	291,66
802,873	346,96
803,053	381,78
803,233	314,19
803,413	303,95
803,592	312,14
803,772	289,62
803,952	306
804,131	269,14
804,311	301,9
804,491	283,47
804,67	250,71
804,85	295,76
805,03	424,78
805,209	367,44
805,389	396,11
805,568	301,9
805,748	301,9
805,928	338,77
806,107	281,43
806,287	310,1
806,466	330,58
806,646	277,33
806,825	330,58
807,004	306
807,184	310,1
807,363	392,02
807,543	308,05
807,722	181,07
807,901	326,48
808,081	334,67
808,26	172,88
808,439	297,81
808,619	291,66
808,798	301,9
808,977	398,16
809,156	351,06
809,336	363,34
809,515	289,62
809,694	217,94
809,873	189,27
810,052	308,05
810,231	373,58
810,411	301,9
810,59	334,67
810,769	287,57
810,948	283,47
811,127	195,41
811,306	254,8
811,485	250,71
811,664	379,73
811,843	258,9
812,022	359,25
812,201	217,94
812,38	256,85
812,559	260,95
812,737	273,23
812,916	179,03
813,095	242,51
813,274	267,09
813,453	236,37
813,632	252,75
813,811	232,27
813,989	174,93
814,168	248,66
814,347	168,79
814,526	179,03
814,704	230,23
814,883	269,14
815,062	195,41
815,24	236,37
815,419	185,17
815,598	236,37
815,776	199,51
815,955	226,13
816,133	117,59
816,312	187,22
816,49	181,07
816,669	123,73
816,847	138,07
817,026	187,22
817,204	162,64
817,383	183,12
817,561	201,55
817,74	240,47
817,918	211,79
818,097	166,74
818,275	183,12
818,453	265,04
818,632	242,51
818,81	226,13
818,988	138,07
819,167	170,83
819,345	219,99
819,523	150,36
819,701	230,23
819,879	269,14
820,058	236,37
820,236	195,41
820,414	170,83
820,592	260,95
820,77	179,03
820,948	199,51
821,127	146,26
821,305	224,08
821,483	187,22
821,661	203,6
821,839	195,41
822,017	168,79
822,195	164,69
822,373	246,61
822,551	103,25
822,729	252,75
822,907	103,25
823,085	242,51
823,262	215,89
823,44	148,31
823,618	58,2
823,796	166,74
823,974	183,12
824,152	203,6
824,329	140,12
824,507	197,46
824,685	179,03
824,863	187,22
825,04	226,13
825,218	244,56
825,396	252,75
825,574	230,23
825,751	226,13
825,929	236,37
826,107	172,88
826,284	138,07
826,462	228,18
826,639	117,59
826,817	95,06
826,994	203,6
827,172	183,12
827,349	279,38
827,527	222,03
827,704	203,6
827,882	219,99
828,059	224,08
828,237	170,83
828,414	248,66
828,591	62,29
828,769	187,22
828,946	140,12
829,124	273,23
829,301	185,17
829,478	133,97
829,655	203,6
829,833	193,36
830,01	117,59
830,187	158,55
830,364	203,6
830,542	215,89
830,719	203,6
830,896	234,32
831,073	181,07
831,25	234,32
831,427	164,69
831,604	127,83
831,782	117,59
831,959	162,64
832,136	115,54
832,313	162,64
832,49	93,01
832,667	150,36
832,844	131,92
833,021	195,41
833,198	203,6
833,374	166,74
833,551	228,18
833,728	158,55
833,905	162,64
834,082	78,68
834,259	109,4
834,436	258,9
834,612	174,93
834,789	183,12
834,966	195,41
835,143	234,32
835,319	148,31
835,496	172,88
835,673	209,75
835,85	154,45
836,026	191,31
836,203	252,75
836,38	144,21
836,556	119,64
836,733	72,53
836,909	275,28
837,086	103,25
837,262	211,79
837,439	166,74
837,616	176,98
837,792	80,72
837,968	103,25
838,145	93,01
838,321	80,72
838,498	193,36
838,674	197,46
838,851	193,36
839,027	133,97
839,203	107,35
839,38	256,85
839,556	176,98
839,732	179,03
839,909	113,49
840,085	244,56
840,261	133,97
840,437	170,83
840,614	97,11
840,79	207,7
840,966	176,98
841,142	185,17
841,318	121,68
841,494	228,18
841,671	172,88
841,847	150,36
842,023	88,92
842,199	179,03
842,375	310,1
842,551	86,87
842,727	103,25
842,903	324,43
843,079	70,48
843,255	269,14
843,431	154,45
843,607	146,26
843,783	121,68
843,959	103,25
844,134	209,75
844,31	203,6
844,486	109,4
844,662	125,78
844,838	152,4
845,013	219,99
845,189	195,41
845,365	187,22
845,541	144,21
845,716	113,49
845,892	246,61
846,068	113,49
846,244	127,83
846,419	152,4
846,595	144,21
846,77	47,96
846,946	228,18
847,122	142,16
847,297	142,16
847,473	244,56
847,648	56,15
847,824	121,68
847,999	76,63
848,175	78,68
848,35	170,83
848,526	154,45
848,701	138,07
848,876	140,12
849,052	217,94
849,227	62,29
849,403	99,16
849,578	129,88
849,753	131,92
849,929	70,48
850,104	52,05
850,279	123,73
850,454	131,92
850,63	88,92
850,805	166,74
850,98	179,03
851,155	215,89
851,33	138,07
851,505	78,68
851,681	265,04
851,856	56,15
852,031	150,36
852,206	72,53
852,381	101,2
852,556	127,83
852,731	154,45
852,906	205,65
853,081	146,26
853,256	113,49
853,431	105,3
853,606	97,11
853,781	88,92
853,956	43,86
854,131	185,17
854,305	64,34
854,48	29,52
854,655	101,2
854,83	64,34
855,005	187,22
855,18	133,97
855,354	121,68
855,529	168,79
855,704	105,3
855,879	109,4
856,053	138,07
856,228	187,22
856,403	95,06
856,577	191,31
856,752	93,01
856,926	54,1
857,101	136,02
857,276	101,2
857,45	144,21
857,625	113,49
857,799	170,83
857,974	62,29
858,148	39,76
858,323	93,01
858,497	127,83
858,672	88,92
858,846	64,34
859,02	170,83
859,195	88,92
859,369	56,15
859,543	101,2
859,718	82,77
859,892	176,98
860,066	133,97
860,241	103,25
860,415	13,14
860,589	170,83
860,763	152,4
860,938	47,96
861,112	125,78
861,286	62,29
861,46	68,44
861,634	117,59
861,808	187,22
861,982	-25,77
862,157	56,15
862,331	138,07
862,505	-3,24
862,679	78,68
862,853	142,16
863,027	131,92
863,201	133,97
863,375	15,19
863,549	117,59
863,722	113,49
863,896	258,9
864,07	70,48
864,244	113,49
864,418	154,45
864,592	105,3
864,766	97,11
864,939	70,48
865,113	56,15
865,287	232,27
865,461	62,29
865,634	80,72
865,808	80,72
865,982	80,72
866,156	-27,82
866,329	11,09
866,503	47,96
866,676	136,02
866,85	95,06
867,024	-11,43
867,197	146,26
867,371	193,36
867,544	105,3
867,718	39,76
867,891	176,98
868,065	56,15
868,238	70,48
868,412	125,78
868,585	68,44
868,759	23,38
868,932	90,96
869,105	11,09
869,279	117,59
869,452	7
869,625	84,82
869,799	88,92
869,972	0,85
870,145	23,38
870,319	121,68
870,492	62,29
870,665	47,96
870,838	105,3
871,011	7
871,185	88,92
871,358	84,82
871,531	125,78
871,704	31,57
871,877	45,91
872,05	74,58
872,223	56,15
872,396	105,3
872,569	127,83
872,742	-15,53
872,915	111,44
873,088	64,34
873,261	80,72
873,434	150,36
873,607	39,76
873,78	146,26
873,953	-19,63
874,126	86,87
874,299	72,53
874,471	105,3
874,644	54,1
874,817	166,74
874,99	195,41
875,163	133,97
875,335	52,05
875,508	129,88
875,681	144,21
875,853	37,72
876,026	103,25
876,199	105,3
876,371	80,72
876,544	119,64
876,717	146,26
876,889	0,85
877,062	95,06
877,234	15,19
877,407	-21,67
877,579	115,54
877,752	95,06
877,924	88,92
878,097	113,49
878,269	27,48
878,442	56,15
878,614	138,07
878,786	93,01
878,959	62,29
879,131	27,48
879,303	97,11
879,476	47,96
879,648	113,49
879,82	97,11
879,993	-9,39
880,165	23,38
880,337	-19,63
880,509	47,96
880,681	29,52
880,854	97,11
881,026	52,05
881,198	244,56
881,37	113,49
881,542	47,96
881,714	95,06
881,886	76,63
882,058	56,15
882,23	68,44
882,402	64,34
882,574	95,06
882,746	146,26
882,918	150,36
883,09	101,2
883,262	80,72
883,434	62,29
883,606	-60,59
883,778	183,12
883,95	86,87
884,122	17,24
884,293	164,69
884,465	86,87
884,637	125,78
884,809	9,05
884,98	35,67
885,152	45,91
885,324	111,44
885,496	27,48
885,667	86,87
885,839	129,88
886,011	101,2
886,182	103,25
886,354	107,35
886,525	86,87
886,697	93,01
886,869	7
887,04	76,63
887,212	105,3
887,383	119,64
887,555	70,48
887,726	82,77
887,897	37,72
888,069	23,38
888,24	64,34
888,412	101,2
888,583	52,05
888,754	33,62
888,926	-17,58
889,097	39,76
889,268	21,33
889,44	76,63
889,611	-3,24
889,782	4,95
889,953	-9,39
890,125	224,08
890,296	-31,91
890,467	64,34
890,638	80,72
890,809	62,29
890,98	-19,63
891,151	142,16
891,323	97,11
891,494	27,48
891,665	-5,29
891,836	82,77
892,007	60,24
892,178	129,88
892,349	31,57
892,52	15,19
892,691	64,34
892,862	54,1
893,032	-1,19
893,203	-11,43
893,374	-1,19
893,545	142,16
893,716	23,38
893,887	78,68
894,057	4,95
894,228	-33,96
894,399	13,14
894,57	150,36
894,74	113,49
894,911	60,24
895,082	72,53
895,253	27,48
895,423	88,92
895,594	60,24
895,764	-36,01
895,935	31,57
896,106	15,19
896,276	-23,72
896,447	113,49
896,617	31,57
896,788	-27,82
896,958	-9,39
897,129	47,96
897,299	29,52
897,47	148,31
897,64	-3,24
897,81	37,72
897,981	138,07
898,151	-33,96
898,322	56,15
898,492	47,96
898,662	-27,82
898,832	80,72
899,003	35,67
899,173	93,01
899,343	23,38
899,513	29,52
