Distance_(pixels),Gray_Value
0,6.333
1,6.333
2,5.000
3,5.000
4,4.038
5,4.047
6,4.057
7,4.133
8,4.152
9,4.171
10,5.000
11,5.896
12,5.886
13,5.877
14,6.578
15,7.572
16,7.566
17,8.559
18,6.553
19,6.547
20,6.540
21,6.733
22,6.875
23,7.667
24,7.894
25,7.904
26,9.164
27,9.171
28,9.177
29,9.908
30,9.905
31,9.902
32,9.899
33,10.209
34,9.441
35,9.889
36,10.228
37,10.883
38,10.240
39,9.667
40,8.667
41,8.667
42,8.667
43,8.074
44,8.667
45,8.667
46,8.564
47,8.554
48,8.000
49,7.000
50,7.667
51,7.667
52,6.667
53,6.667
54,6.667
55,6.667
56,6.667
57,6.667
58,6.667
59,6.667
60,6.667
61,6.667
62,6.667
63,6.667
64,6.667
65,6.667
66,6.041
67,6.667
68,7.022
69,7.012
70,7.339
71,7.320
72,7.301
73,7.590
74,7.457
75,7.111
76,6.784
77,6.836
78,6.535
79,6.503
80,6.713
81,7.440
82,6.038
83,5.994
84,5.950
85,5.905
86,5.046
87,4.817
88,4.773
89,4.572
90,4.538
91,4.503
92,4.468
93,4.433
94,4.398
95,4.364
96,4.329
97,4.907
98,5.832
99,5.830
100,6.753
101,6.737
102,6.721
103,6.706
104,5.717
105,5.683
106,7.651
107,6.633
108,7.594
109,9.600
110,10.581
111,10.562
112,10.605
113,12.524
114,9.667
115,8.576
116,8.767
117,10.448
118,11.723
119,10.538
120,9.816
121,9.519
122,9.105
123,9.667
124,9.941
125,9.667
126,10.130
127,10.667
128,10.356
129,10.372
130,11.566
131,11.575
132,11.834
133,11.856
134,12.847
135,12.613
136,13.570
137,13.632
138,15.564
139,14.333
140,12.885
141,11.670
142,11.551
143,11.333
144,12.545
145,12.958
146,11.871
147,11.909
148,11.947
149,11.985
150,11.215
151,10.818
152,11.285
153,11.319
154,9.973
155,9.980
156,10.507
157,10.504
158,10.002
159,9.990
160,10.150
161,9.965
162,10.203
163,9.879
164,9.667
165,9.204
166,9.655
167,9.638
168,9.171
169,8.321
170,9.089
171,9.055
172,8.389
173,8.345
174,7.517
175,7.476
176,7.435
177,7.394
178,7.145
179,7.110
180,7.133
181,7.369
182,7.221
183,7.432
184,7.624
185,7.551
186,7.988
187,7.921
188,8.072
189,7.996
190,8.455
191,7.656
192,6.718
193,5.956
194,6.481
195,5.453
196,5.997
197,5.685
198,6.368
199,7.339
200,8.207
201,9.188
202,10.338
203,10.250
204,11.421
205,11.798
206,12.140
207,12.112
208,12.092
209,11.703
210,11.687
211,12.001
212,13.020
213,13.039
214,13.706
215,13.641
216,12.635
217,13.237
218,14.799
219,15.129
220,16.133
221,19.316
222,19.317
223,18.695
224,19.419
225,21.111
226,20.904
227,21.724
228,22.740
229,22.533
230,22.762
231,22.715
232,23.667
233,23.829
234,24.249
235,23.297
236,23.494
237,23.183
238,22.869
239,24.271
240,26.358
241,27.959
242,27.854
243,27.206
244,27.276
245,26.466
246,26.343
247,25.334
248,25.628
249,25.492
250,23.332
251,22.740
252,22.382
253,22.478
254,23.357
255,22.567
256,22.825
257,21.466
258,19.649
259,20.686
260,22.076
261,22.801
262,23.266
263,22.218
264,21.133
265,19.684
266,17.315
267,18.122
268,18.906
269,19.396
270,19.346
271,19.434
272,19.596
273,19.960
274,20.349
275,20.663
276,20.957
277,21.232
278,21.489
279,21.726
280,21.945
281,21.809
282,22.449
283,22.415
284,22.837
285,24.797
286,28.276
287,31.737
288,33.627
289,34.440
290,34.254
291,32.777
292,31.318
293,30.100
294,29.882
295,29.664
296,31.252
297,31.228
298,29.285
299,36.410
300,45.716
301,51.133
302,49.152
303,44.279
304,43.251
305,44.204
306,40.401
307,41.113
308,42.685
309,42.454
310,42.302
311,43.150
312,45.957
313,47.815
314,49.559
315,49.478
316,49.373
317,49.156
318,47.884
319,47.589
320,47.305
321,46.035
322,41.949
323,39.828
324,38.673
325,39.373
326,40.115
327,40.850
328,38.057
329,36.100
330,34.966
331,36.515
332,36.323
333,35.673
334,32.994
335,31.901
336,33.381
337,34.692
338,31.191
339,31.188
340,30.273
341,29.377
342,28.500
343,28.389
344,28.104
345,27.987
346,28.203
347,29.129
348,32.537
349,34.664
350,35.717
351,35.759
352,35.372
353,34.894
354,35.363
355,36.475
356,36.447
357,36.759
358,37.099
359,38.521
360,40.844
361,42.988
362,48.484
363,49.167
364,50.229
365,50.629
366,51.866
367,53.121
368,54.885
369,55.689
370,57.771
371,57.708
372,56.380
373,56.295
374,55.916
375,57.031
376,58.984
377,60.513
378,65.173
379,67.542
380,69.798
381,68.488
382,65.719
383,63.314
384,63.929
385,65.947
386,64.850
387,64.034
388,64.439
389,64.158
390,64.990
391,64.092
392,63.786
393,62.565
394,66.401
395,66.309
396,64.859
397,62.101
398,61.261
399,63.183
400,63.393
401,62.709
402,64.627
403,65.607
404,66.272
405,68.134
406,69.116
407,69.291
408,67.869
409,66.423
410,64.337
411,65.206
412,66.000
413,65.000
414,64.074
415,63.065
416,64.000
417,65.272
418,64.964
419,66.306
420,65.661
421,65.995
422,68.985
423,76.187
424,80.360
425,80.188
426,82.603
427,82.298
428,81.033
429,81.078
430,78.272
431,76.192
432,72.549
433,70.551
434,70.413
435,77.465
436,83.287
437,83.881
438,86.996
439,96.711
440,93.033
441,78.338
442,76.193
443,80.656
444,85.953
445,86.723
446,85.196
447,83.961
448,85.059
449,86.549
450,89.148
451,89.628
452,90.423
453,91.062
454,90.593
455,87.636
456,84.129
457,82.111
458,80.163
459,80.999
460,80.601
461,78.862
462,75.387
463,72.204
464,71.875
465,71.952
466,72.471
467,71.679
468,71.246
469,68.657
470,65.969
471,62.238
472,60.204
473,58.471
474,59.740
475,57.949
476,56.370
477,55.452
478,56.719
479,57.817
480,59.807
481,59.553
482,59.820
483,57.974
484,58.285
485,59.010
486,61.800
487,64.166
488,66.739
489,67.818
490,67.082
491,67.022
492,66.671
493,67.968
494,70.491
495,71.865
496,72.818
497,72.625
498,72.964
499,75.163
500,78.110
501,79.749
502,81.080
503,82.128
504,83.403
505,84.058
506,90.667
507,90.859
508,91.033
509,90.667
510,90.338
511,89.536
512,89.710
513,90.000
514,86.252
515,86.117
516,85.000
517,84.000
518,86.000
519,88.000
520,86.069
521,81.453
522,85.283
523,85.612
524,84.573
525,83.268
526,82.992
527,81.675
528,78.590
529,73.157
530,69.129
531,68.340
532,66.785
533,66.803
534,68.355
535,68.371
536,66.963
537,65.495
538,58.687
539,59.077
540,59.315
541,60.503
542,63.678
543,68.556
544,71.115
545,71.197
546,71.392
547,70.621
548,68.939
549,70.749
550,75.768
551,83.372
552,86.935
553,87.239
554,81.730
555,86.678
556,90.559
557,96.579
558,95.938
559,101.629
560,115.533
561,111.370
562,111.509
563,111.811
564,110.550
565,108.309
566,110.333
567,113.212
568,114.362
569,114.016
570,113.960
571,114.881
572,114.802
573,113.156
574,114.272
575,116.652
576,119.204
577,118.939
578,116.866
579,118.373
580,119.335
581,119.824
582,119.889
583,118.502
584,119.021
585,118.974
586,120.777
587,120.201
588,120.182
589,120.163
590,120.144
591,119.729
592,119.644
593,118.465
594,112.681
595,116.333
596,114.636
597,107.994
598,105.216
599,110.987
600,116.748
601,118.735
602,122.583
603,119.632
604,114.757
605,107.367
606,99.287
607,92.816
608,91.045
609,90.610
610,85.818
611,83.919
612,80.925
613,76.417
614,70.599
615,66.498
616,66.826
617,70.016
618,68.660
619,72.522
620,77.999
621,81.342
622,84.940
623,90.334
624,97.275
625,101.502
626,104.868
627,107.214
628,110.164
629,112.345
630,114.552
631,115.790
632,117.372
633,117.662
634,117.035
635,111.467
636,135.034
637,149.305
638,142.686
639,123.923
640,126.410
641,147.746
642,148.500
643,155.525
644,160.886
645,163.734
646,173.571
647,173.537
648,184.593
649,188.974
650,195.869
651,203.362
652,200.931
653,199.163
654,200.052
655,197.908
656,205.543
657,211.603
658,196.893
659,209.447
660,219.311
661,214.530
662,211.855
663,215.231
664,221.361
665,221.776
666,210.411
667,204.088
668,210.999
669,224.532
670,221.725
671,221.833
672,230.971
673,229.371
674,209.687
675,207.661
676,214.234
677,215.215
678,213.239
679,218.726
680,227.924
681,234.349
682,234.155
683,227.427
684,227.257
685,224.530
686,224.965
687,228.781
688,225.096
689,224.600
690,223.811
691,221.781
692,218.416
693,219.572
694,221.785
695,218.503
696,214.468
697,218.145
698,220.306
699,220.604
700,220.542
701,216.157
702,209.656
703,201.886
704,213.628
705,211.461
706,202.380
707,205.815
708,200.620
709,187.217
710,179.517
711,180.817
712,185.171
713,188.789
714,194.955
715,198.113
716,193.456
717,189.658
718,173.516
719,168.061
720,171.267
721,169.297
722,174.512
723,153.726
724,142.904
725,147.491
726,147.284
727,136.304
728,121.139
729,121.304
730,118.906
731,120.836
732,122.903
733,122.667
734,122.920
735,122.939
736,118.646
737,115.294
738,111.985
739,103.139
740,101.310
741,100.991
742,108.750
743,98.571
744,102.651
745,99.801
746,99.747
747,98.136
748,95.637
749,92.049
750,92.494
751,95.129
752,97.060
753,96.514
754,94.258
755,96.067
756,97.239
757,95.794
758,93.854
759,93.651
760,94.815
761,97.189
762,98.258
763,100.490
764,105.489
765,96.254
766,88.386
767,94.363
768,98.629
769,97.791
770,92.092
771,92.838
772,92.933
773,95.692
774,105.269
775,110.220
776,108.916
777,106.584
778,106.601
779,106.876
780,107.775
781,107.413
782,108.988
783,107.381
784,105.836
785,105.087
786,104.043
787,98.071
788,98.168
789,102.630
790,106.073
791,109.999
792,108.510
793,102.558
794,98.824
795,100.743
796,100.611
797,97.891
798,93.956
799,91.797
800,90.219
801,87.667
802,85.271
803,86.772
804,86.043
805,82.743
806,81.783
807,82.492
808,80.380
809,76.053
810,78.953
811,70.783
812,64.033
813,62.988
814,68.236
815,72.770
816,74.557
817,73.926
818,71.183
819,73.332
820,72.555
821,68.680
822,66.678
823,64.561
824,63.880
825,61.291
826,61.828
827,63.245
828,63.667
829,62.224
830,62.619
831,64.083
832,63.627
833,62.386
834,65.099
835,66.965
836,68.771
837,69.984
838,70.288
839,70.630
840,69.970
841,69.606
842,75.139
843,76.384
844,78.980
845,80.921
846,82.195
847,84.395
848,84.190
849,83.929
850,83.297
851,81.076
852,80.265
853,81.745
854,83.145
855,83.988
856,80.611
857,77.706
858,78.683
859,80.231
860,82.894
861,82.846
862,80.465
863,77.601
864,76.756
865,77.390
866,72.962
867,71.891
868,71.872
869,71.853
870,72.584
871,72.815
872,72.797
873,72.055
874,72.046
875,70.036
876,69.129
877,67.737
878,67.635
879,65.006
880,62.710
881,61.846
882,59.788
883,60.333
884,59.510
885,57.842
886,58.271
887,59.053
888,58.540
889,56.859
890,51.090
891,48.128
892,44.374
893,40.736
894,40.749
895,40.613
896,41.155
897,40.015
898,37.040
899,37.065
900,37.557
901,37.667
902,39.035
903,39.479
904,40.476
905,41.031
906,39.530
907,41.933
908,44.171
909,44.110
910,44.238
911,45.965
912,48.705
913,51.790
914,55.444
915,54.638
916,52.924
917,51.581
918,50.553
919,50.667
920,50.645
921,51.623
922,54.010
923,54.579
924,57.572
925,60.132
926,60.268
927,58.353
928,56.665
929,56.505
930,55.939
931,56.770
932,56.783
933,55.796
934,55.665
935,54.597
936,52.626
937,50.359
938,51.279
939,49.109
940,46.304
941,45.359
942,45.045
943,45.903
944,44.870
945,43.522
946,45.890
947,44.592
948,42.282
949,39.326
950,37.349
951,38.041
952,37.387
953,34.715
954,32.153
955,29.907
956,29.550
957,29.581
958,29.557
959,28.458
960,27.872
961,29.779
962,29.699
963,30.596
964,31.615
965,31.634
966,32.333
967,32.497
968,33.488
969,34.478
970,35.004
971,36.402
972,36.767
973,36.786
974,39.431
975,42.177
976,43.406
977,43.629
978,44.362
979,44.623
980,43.903
981,44.201
982,44.208
983,44.535
984,44.212
985,44.920
986,45.964
987,45.008
988,44.052
989,43.852
990,43.819
991,42.169
992,39.990
993,37.828
994,39.759
995,41.203
996,43.814
997,44.815
998,45.063
999,44.605
1000,44.994
1001,44.249
1002,42.679
1003,41.616
1004,39.734
1005,36.688
1006,34.161
1007,32.830
1008,31.517
1009,30.422
1010,27.564
1011,26.749
1012,26.235
1013,24.703
1014,23.766
1015,22.205
1016,21.625
1017,21.312
1018,20.060
1019,20.095
1020,19.573
1021,19.604
1022,19.945
1023,19.967
1024,19.989
1025,20.011
1026,19.395
1027,19.667
1028,20.414
1029,19.667
1030,19.433
1031,18.667
1032,19.667
1033,19.667
1034,21.862
1035,21.977
1036,21.961
1037,22.500
1038,22.543
1039,22.864
1040,22.851
1041,22.968
1042,21.453
1043,22.333
1044,22.333
1045,22.425
1046,22.497
1047,22.574
1048,23.480
1049,23.458
1050,24.813
1051,24.781
1052,26.074
1053,27.031
1054,27.018
1055,28.002
1056,28.355
1057,28.060
1058,30.344
1059,28.708
1060,29.034
1061,29.020
1062,29.333
1063,28.333
1064,27.363
1065,26.169
1066,24.955
1067,24.784
1068,24.878
1069,24.515
1070,24.813
1071,23.207
1072,22.165
1073,21.291
1074,22.483
1075,22.473
1076,21.333
1077,21.212
1078,21.443
1079,20.669
1080,20.710
1081,20.667
1082,17.420
1083,16.423
1084,15.945
1085,15.955
1086,16.298
1087,16.614
1088,15.633
1089,15.652
1090,16.336
1091,15.345
1092,15.000
1093,14.364
1094,14.373
1095,15.000
1096,15.203
1097,15.797
1098,14.333
1099,14.193
1100,15.333
1101,15.187
1102,15.783
1103,15.792
1104,15.447
1105,14.637
1106,14.154
1107,13.497
1108,13.350
1109,12.031
1110,12.084
1111,11.604
1112,11.603
1113,11.107
1114,12.375
1115,9.618
1116,10.139
1117,10.817
1118,11.598
1119,10.372
1120,10.347
1121,10.902
1122,12.250
1123,11.279
1124,9.877
1125,9.890
1126,10.010
1127,9.895
1128,10.131
1129,9.902
1130,11.048
1131,9.908
1132,9.177
1133,9.496
1134,10.255
1135,11.953
1136,11.210
1137,10.896
1138,12.194
1139,12.133
1140,11.143
1141,11.152
1142,11.162
1143,11.171
1144,12.181
1145,12.190
1146,11.867
1147,11.876
1148,11.885
1149,10.895
1150,10.571
1151,10.581
1152,10.590
1153,10.600
1154,9.609
1155,10.619
1156,11.961
1157,11.971
1158,10.980
1159,10.990
1160,12.333
1161,13.319
1162,12.358
1163,13.370
1164,13.420
1165,14.442
1166,15.408
1167,16.421
1168,16.817
1169,16.920
1170,17.667
1171,18.069
1172,17.377
1173,17.408
1174,17.440
1175,17.330
1176,17.050
1177,17.733
1178,17.163
1179,17.513
1180,18.333
1181,19.204
1182,19.182
1183,19.377
1184,19.364
1185,19.115
1186,18.596
1187,18.071
1188,18.539
1189,18.661
1190,20.198
1191,18.925
1192,18.658
1193,16.792
1194,17.594
1195,17.007
1196,16.652
1197,16.383
1198,16.895
1199,16.313
1200,15.819
1201,14.707
1202,12.474
1203,11.915
1204,11.834
1205,10.290
1206,10.608
1207,9.110
1208,8.849
1209,8.309
1210,9.509
1211,9.506
1212,8.995
1213,8.502
1214,8.511
1215,8.347
1216,8.354
1217,8.360
1218,8.117
1219,8.108
1220,7.667
1221,7.667
1222,7.667
1223,6.667
1224,6.667
1225,6.667
1226,6.292
1227,6.667
1228,7.311
1229,7.320
1230,7.330
1231,7.339
1232,6.667
1233,6.667
1234,7.265
1235,7.246
1236,7.227
1237,7.451
1238,8.174
1239,8.252
1240,8.242
1241,8.310
1242,9.301
1243,9.259
1244,9.218
1245,9.788
1246,9.580
1247,10.392
1248,10.944
1249,11.085
1250,12.775
1251,14.609
1252,16.504
1253,16.571
1254,15.698
1255,15.566
1256,15.454
1257,16.360
1258,17.429
1259,17.416
1260,18.351
1261,18.305
1262,17.667
1263,17.667
1264,18.652
1265,18.330
1266,16.326
1267,15.653
1268,14.643
1269,13.667
1270,12.667
1271,11.667
1272,10.728
1273,10.714
1274,12.560
1275,12.244
1276,12.201
1277,11.000
1278,10.961
1279,9.794
1280,9.667
1281,9.667
1282,8.667
1283,8.333
1284,7.333
1285,6.333
1286,6.333
1287,6.333
1288,6.333
1289,6.333
1290,7.101
1291,7.092
1292,6.333
1293,6.333
1294,6.333
1295,6.333
1296,6.333
1297,6.333
1298,5.667
1299,5.667
1300,5.667
1301,5.667
1302,5.667
1303,5.667
1304,5.667
1305,5.667
1306,5.667
1307,5.667
1308,5.667
1309,5.667
1310,6.667
1311,6.667
1312,6.667
1313,6.667
1314,6.667
1315,6.667
1316,6.667
1317,6.667
1318,6.667
1319,6.667
1320,6.667
1321,6.667
1322,8.131
1323,8.122
1324,8.112
1325,8.539
1326,9.093
1327,9.084
1328,9.074
1329,9.065
1330,9.000
1331,9.000
1332,9.000
1333,9.000
1334,9.000
1335,9.000
1336,9.000
1337,9.000
1338,9.000
1339,9.000
1340,9.000
1341,9.000
1342,9.000
1343,9.000
1344,9.000
1345,8.667
1346,7.904
1347,7.894
1348,7.885
1349,7.667
1350,6.532
1351,6.523
1352,6.513
1353,6.333
1354,6.333
1355,6.333
1356,6.333
1357,6.333
1358,6.000
1359,6.000
1360,6.000
1361,6.000
1362,6.000
1363,6.000
1364,5.066
1365,5.000
1366,5.000
1367,5.000
1368,5.000
1369,5.000
1370,5.000
1371,5.000
